# OpenSignals Text File Format. Version 1
# {"20:19:07:00:80:B3": {"position": 0, "device": "bitalino_rev", "device name": "20:19:07:00:80:B3", "device connection": "20:19:07:00:80:B3", "sampling rate": 10, "resolution": [4, 1, 1, 1, 1, 10, 10, 10, 10, 6, 6], "firmware version": 1282, "comments": "", "keywords": "", "mode": 0, "sync interval": 2, "date": "2025-1-30", "time": "14:59:10.185", "channels": [1, 2, 3, 4, 5, 6], "sensor": ["ECGBIT", "ECGBIT", "RAW", "RAW", "RAW", "RAW"], "label": ["A1", "A2", "A3", "A4", "A5", "A6"], "column": ["nSeq", "I1", "I2", "O1", "O2", "A1", "A2", "A3", "A4", "A5", "A6"], "special": [{}, {}, {}, {}, {}, {}], "digital IO": [0, 0, 1, 1], "convertedValues": 0}}
# EndOfHeader
0	0	0	0	0	443	316	0	0	0	0	
1	0	0	0	0	456	178	0	0	0	0	
2	0	0	0	0	778	88	0	0	0	0	
3	0	0	0	0	485	46	0	0	0	0	
4	0	0	0	0	273	24	0	0	0	0	
5	0	0	0	0	470	19	0	0	0	0	
6	0	0	0	0	400	45	0	0	0	0	
7	0	0	0	0	358	38	0	0	0	0	
8	0	0	0	0	386	119	0	0	0	0	
9	0	0	0	0	403	327	0	0	0	0	
10	0	0	0	0	748	455	0	0	0	0	
11	0	0	0	0	945	645	1	0	0	0	
12	0	0	0	0	377	803	1	0	0	0	
13	0	0	0	0	371	908	2	0	0	0	
14	0	0	0	0	511	964	3	0	0	0	
15	0	0	0	0	381	992	3	0	0	0	
0	0	0	0	0	379	1005	3	0	0	0	
1	0	0	0	0	756	1004	3	0	0	0	
2	0	0	0	0	945	1014	3	0	0	0	
3	0	0	0	0	296	1019	3	0	0	0	
4	0	0	0	0	409	1020	3	0	0	0	
5	0	0	0	0	507	1019	3	0	0	0	
6	0	0	0	0	591	1019	3	0	0	0	
7	0	0	0	0	677	1020	3	0	0	0	
8	0	0	0	0	273	1019	3	0	0	0	
9	0	0	0	0	414	978	3	0	0	0	
10	0	0	0	0	446	945	3	0	0	0	
11	0	0	0	0	359	828	2	0	0	0	
12	0	0	0	0	354	787	1	0	0	0	
13	0	0	0	0	373	868	2	0	0	0	
14	0	0	0	0	372	954	3	0	0	0	
15	0	0	0	0	377	992	3	0	0	0	
0	0	0	0	0	369	1010	3	0	0	0	
1	0	0	0	0	845	1017	3	0	0	0	
2	0	0	0	0	667	1020	3	0	0	0	
3	0	0	0	0	244	1020	3	0	0	0	
4	0	0	0	0	435	1012	3	0	0	0	
5	0	0	0	0	474	947	3	0	0	0	
6	0	0	0	0	395	890	2	0	0	0	
7	0	0	0	0	391	880	2	0	0	0	
8	0	0	0	0	694	871	2	0	0	0	
9	0	0	0	0	722	851	2	0	0	0	
10	0	0	0	0	344	829	2	0	0	0	
11	0	0	0	0	436	781	1	0	0	0	
12	0	0	0	0	515	732	1	0	0	0	
13	0	0	0	0	439	721	1	0	0	0	
14	0	0	0	0	510	723	1	0	0	0	
15	0	0	0	0	840	724	1	0	0	0	
0	0	0	0	0	458	690	1	0	0	0	
1	0	0	0	0	380	624	1	0	0	0	
2	0	0	0	0	559	536	0	0	0	0	
3	0	0	0	0	470	450	0	0	0	0	
4	0	0	0	0	440	333	0	0	0	0	
5	0	0	0	0	946	188	0	0	0	0	
6	0	0	0	0	787	109	0	0	0	0	
7	0	0	0	0	376	69	0	0	0	0	
8	0	0	0	0	587	182	0	0	0	0	
9	0	0	0	0	511	353	0	0	0	0	
10	0	0	0	0	427	483	0	0	0	0	
11	0	0	0	0	946	548	0	0	0	0	
12	0	0	0	0	946	568	0	0	0	0	
13	0	0	0	0	414	546	0	0	0	0	
14	0	0	0	0	441	515	0	0	0	0	
15	0	0	0	0	491	531	0	0	0	0	
0	0	0	0	0	373	551	0	0	0	0	
1	0	0	0	0	534	572	0	0	0	0	
2	0	0	0	0	946	613	1	0	0	0	
3	0	0	0	0	655	681	1	0	0	0	
4	0	0	0	0	230	751	1	0	0	0	
5	0	0	0	0	496	810	2	0	0	0	
6	0	0	0	0	341	874	2	0	0	0	
7	0	0	0	0	320	917	2	0	0	0	
8	0	0	0	0	414	934	2	0	0	0	
9	0	0	0	0	946	937	3	0	0	0	
10	0	0	0	0	661	957	3	0	0	0	
11	0	0	0	0	199	990	3	0	0	0	
12	0	0	0	0	507	1006	3	0	0	0	
13	0	0	0	0	371	1006	3	0	0	0	
14	0	0	0	0	320	1005	3	0	0	0	
15	0	0	0	0	368	1015	3	0	0	0	
0	0	0	0	0	384	1019	3	0	0	0	
1	0	0	0	0	939	903	2	0	0	0	
2	0	0	0	0	525	633	1	0	0	0	
3	0	0	0	0	231	515	0	0	0	0	
4	0	0	0	0	501	662	1	0	0	0	
5	0	0	0	0	399	793	1	0	0	0	
6	0	0	0	0	326	906	2	0	0	0	
7	0	0	0	0	372	966	3	0	0	0	
8	0	0	0	0	396	996	3	0	0	0	
9	0	0	0	0	642	1009	3	0	0	0	
10	0	0	0	0	582	1017	3	0	0	0	
11	0	0	0	0	274	1020	3	0	0	0	
12	0	0	0	0	406	1018	3	0	0	0	
13	0	0	0	0	425	953	3	0	0	0	
14	0	0	0	0	362	876	2	0	0	0	
15	0	0	0	0	354	834	2	0	0	0	
0	0	0	0	0	541	798	1	0	0	0	
1	0	0	0	0	622	774	1	0	0	0	
2	0	0	0	0	344	759	1	0	0	0	
3	0	0	0	0	426	759	1	0	0	0	
4	0	0	0	0	476	733	1	0	0	0	
5	0	0	0	0	409	678	1	0	0	0	
6	0	0	0	0	414	609	1	0	0	0	
7	0	0	0	0	716	548	0	0	0	0	
8	0	0	0	0	558	425	0	0	0	0	
9	0	0	0	0	387	301	0	0	0	0	
10	0	0	0	0	519	174	0	0	0	0	
11	0	0	0	0	483	96	0	0	0	0	
12	0	0	0	0	433	50	0	0	0	0	
13	0	0	0	0	484	32	0	0	0	0	
14	0	0	0	0	869	18	0	0	0	0	
15	0	0	0	0	551	9	0	0	0	0	
0	0	0	0	0	425	9	0	0	0	0	
1	0	0	0	0	543	22	0	0	0	0	
2	0	0	0	0	420	38	0	0	0	0	
3	0	0	0	0	358	73	0	0	0	0	
4	0	0	0	0	476	236	0	0	0	0	
5	0	0	0	0	911	442	0	0	0	0	
6	0	0	0	0	534	664	1	0	0	0	
7	0	0	0	0	444	833	2	0	0	0	
8	0	0	0	0	567	924	2	0	0	0	
9	0	0	0	0	458	971	3	0	0	0	
10	0	0	0	0	414	990	3	0	0	0	
11	0	0	0	0	451	993	3	0	0	0	
12	0	0	0	0	737	1004	3	0	0	0	
13	0	0	0	0	845	990	3	0	0	0	
14	0	0	0	0	412	1004	3	0	0	0	
15	0	0	0	0	545	1014	3	0	0	0	
0	0	0	0	0	572	1019	3	0	0	0	
1	0	0	0	0	438	1017	3	0	0	0	
2	0	0	0	0	440	974	3	0	0	0	
3	0	0	0	0	476	939	2	0	0	0	
4	0	0	0	0	616	949	2	0	0	0	
5	0	0	0	0	946	952	3	0	0	0	
6	0	0	0	0	448	958	3	0	0	0	
7	0	0	0	0	436	973	3	0	0	0	
8	0	0	0	0	593	989	3	0	0	0	
9	0	0	0	0	422	999	3	0	0	0	
10	0	0	0	0	383	854	2	0	0	0	
11	0	0	0	0	412	512	0	0	0	0	
12	0	0	0	0	428	284	0	0	0	0	
13	0	0	0	0	859	297	0	0	0	0	
14	0	0	0	0	626	418	0	0	0	0	
15	0	0	0	0	293	527	0	0	0	0	
0	0	0	0	0	542	743	1	0	0	0	
1	0	0	0	0	507	878	2	0	0	0	
2	0	0	0	0	381	949	2	0	0	0	
3	0	0	0	0	419	977	3	0	0	0	
4	0	0	0	0	454	973	3	0	0	0	
5	0	0	0	0	864	975	3	0	0	0	
6	0	0	0	0	670	954	2	0	0	0	
7	0	0	0	0	308	903	2	0	0	0	
8	0	0	0	0	514	858	2	0	0	0	
9	0	0	0	0	524	801	1	0	0	0	
10	0	0	0	0	406	745	1	0	0	0	
11	0	0	0	0	422	747	1	0	0	0	
12	0	0	0	0	806	710	1	0	0	0	
13	0	0	0	0	779	524	0	0	0	0	
14	0	0	0	0	324	338	0	0	0	0	
15	0	0	0	0	503	222	0	0	0	0	
0	0	0	0	0	535	163	0	0	0	0	
1	0	0	0	0	387	168	0	0	0	0	
2	0	0	0	0	408	155	0	0	0	0	
3	0	0	0	0	946	106	0	0	0	0	
4	0	0	0	0	756	149	0	0	0	0	
5	0	0	0	0	244	167	0	0	0	0	
6	0	0	0	0	544	212	0	0	0	0	
7	0	0	0	0	468	265	0	0	0	0	
8	0	0	0	0	358	300	0	0	0	0	
9	0	0	0	0	636	312	0	0	0	0	
10	0	0	0	0	946	353	0	0	0	0	
11	0	0	0	0	368	422	0	0	0	0	
12	0	0	0	0	309	465	0	0	0	0	
13	0	0	0	0	549	531	0	0	0	0	
14	0	0	0	0	362	575	0	0	0	0	
15	0	0	0	0	382	607	0	0	0	0	
0	0	0	0	0	946	647	1	0	0	0	
1	0	0	0	0	946	710	1	0	0	0	
2	0	0	0	0	153	723	1	0	0	0	
3	0	0	0	0	473	734	1	0	0	0	
4	0	0	0	0	494	815	1	0	0	0	
5	0	0	0	0	334	914	2	0	0	0	
6	0	0	0	0	400	964	3	0	0	0	
7	0	0	0	0	940	993	3	0	0	0	
8	0	0	0	0	946	1008	3	0	0	0	
9	0	0	0	0	216	1016	3	0	0	0	
10	0	0	0	0	488	1007	3	0	0	0	
11	0	0	0	0	581	957	3	0	0	0	
12	0	0	0	0	356	902	2	0	0	0	
13	0	0	0	0	390	880	2	0	0	0	
14	0	0	0	0	925	833	2	0	0	0	
15	0	0	0	0	946	740	1	0	0	0	
0	0	0	0	0	184	655	1	0	0	0	
1	0	0	0	0	468	576	0	0	0	0	
2	0	0	0	0	542	426	0	0	0	0	
3	0	0	0	0	325	293	0	0	0	0	
4	0	0	0	0	394	164	0	0	0	0	
5	0	0	0	0	946	90	0	0	0	0	
6	0	0	0	0	638	45	0	0	0	0	
7	0	0	0	0	125	27	0	0	0	0	
8	0	0	0	0	593	19	0	0	0	0	
9	0	0	0	0	393	11	0	0	0	0	
10	0	0	0	0	285	6	0	0	0	0	
11	0	0	0	0	758	5	0	0	0	0	
12	0	0	0	0	946	24	0	0	0	0	
13	0	0	0	0	301	178	0	0	0	0	
14	0	0	0	0	291	388	0	0	0	0	
15	0	0	0	0	557	576	0	0	0	0	
0	0	0	0	0	294	780	1	0	0	0	
1	0	0	0	0	323	895	2	0	0	0	
2	0	0	0	0	946	956	2	0	0	0	
3	0	0	0	0	946	988	3	0	0	0	
4	0	0	0	0	146	1005	3	0	0	0	
5	0	0	0	0	497	1013	3	0	0	0	
6	0	0	0	0	499	999	3	0	0	0	
7	0	0	0	0	266	962	3	0	0	0	
8	0	0	0	0	380	916	2	0	0	0	
9	0	0	0	0	647	889	2	0	0	0	
10	0	0	0	0	946	878	2	0	0	0	
11	0	0	0	0	409	881	2	0	0	0	
12	0	0	0	0	256	872	2	0	0	0	
13	0	0	0	0	606	859	2	0	0	0	
14	0	0	0	0	286	839	2	0	0	0	
15	0	0	0	0	299	824	2	0	0	0	
0	0	0	0	0	424	825	2	0	0	0	
1	0	0	0	0	802	864	2	0	0	0	
2	0	0	0	0	946	781	1	0	0	0	
3	0	0	0	0	206	486	0	0	0	0	
4	0	0	0	0	285	250	0	0	0	0	
5	0	0	0	0	605	239	0	0	0	0	
6	0	0	0	0	279	472	0	0	0	0	
7	0	0	0	0	309	672	1	0	0	0	
8	0	0	0	0	425	829	2	0	0	0	
9	0	0	0	0	645	923	2	0	0	0	
10	0	0	0	0	946	972	3	0	0	0	
11	0	0	0	0	542	996	3	0	0	0	
12	0	0	0	0	220	1009	3	0	0	0	
13	0	0	0	0	673	1005	3	0	0	0	
14	0	0	0	0	356	956	3	0	0	0	
15	0	0	0	0	326	854	2	0	0	0	
0	0	0	0	0	448	783	1	0	0	0	
1	0	0	0	0	946	719	1	0	0	0	
2	0	0	0	0	946	684	1	0	0	0	
3	0	0	0	0	116	672	1	0	0	0	
4	0	0	0	0	582	634	1	0	0	0	
5	0	0	0	0	517	606	1	0	0	0	
6	0	0	0	0	317	566	0	0	0	0	
7	0	0	0	0	434	507	0	0	0	0	
8	0	0	0	0	946	329	0	0	0	0	
9	0	0	0	0	703	190	0	0	0	0	
10	0	0	0	0	128	105	0	0	0	0	
11	0	0	0	0	646	66	0	0	0	0	
12	0	0	0	0	423	63	0	0	0	0	
13	0	0	0	0	330	108	0	0	0	0	
14	0	0	0	0	883	156	0	0	0	0	
15	0	0	0	0	947	257	0	0	0	0	
0	0	0	0	0	280	324	0	0	0	0	
1	0	0	0	0	370	458	0	0	0	0	
2	0	0	0	0	569	574	0	0	0	0	
3	0	0	0	0	295	623	1	0	0	0	
4	0	0	0	0	406	660	1	0	0	0	
5	0	0	0	0	947	715	1	0	0	0	
6	0	0	0	0	726	698	1	0	0	0	
7	0	0	0	0	140	731	1	0	0	0	
8	0	0	0	0	652	739	1	0	0	0	
9	0	0	0	0	384	682	1	0	0	0	
10	0	0	0	0	344	455	0	0	0	0	
11	0	0	0	0	841	465	0	0	0	0	
12	0	0	0	0	946	566	0	0	0	0	
13	0	0	0	0	167	643	1	0	0	0	
14	0	0	0	0	415	700	1	0	0	0	
15	0	0	0	0	591	702	1	0	0	0	
0	0	0	0	0	280	813	2	0	0	0	
1	0	0	0	0	318	896	2	0	0	0	
2	0	0	0	0	946	595	0	0	0	0	
3	0	0	0	0	802	301	0	0	0	0	
4	0	0	0	0	16	154	0	0	0	0	
5	0	0	0	0	580	76	0	0	0	0	
6	0	0	0	0	455	38	0	0	0	0	
7	0	0	0	0	274	19	0	0	0	0	
8	0	0	0	0	946	12	0	0	0	0	
9	0	0	0	0	524	4	0	0	0	0	
10	0	0	0	0	131	236	0	0	0	0	
11	0	0	0	0	612	316	0	0	0	0	
12	0	0	0	0	388	639	1	0	0	0	
13	0	0	0	0	319	821	2	0	0	0	
14	0	0	0	0	434	916	2	0	0	0	
15	0	0	0	0	479	968	3	0	0	0	
0	0	0	0	0	946	995	3	0	0	0	
1	0	0	0	0	864	1008	3	0	0	0	
2	0	0	0	0	86	1016	3	0	0	0	
3	0	0	0	0	684	1019	3	0	0	0	
4	0	0	0	0	408	1020	3	0	0	0	
5	0	0	0	0	276	1020	3	0	0	0	
6	0	0	0	0	444	1020	3	0	0	0	
7	0	0	0	0	947	1020	3	0	0	0	
8	0	0	0	0	626	1020	3	0	0	0	
9	0	0	0	0	104	1002	3	0	0	0	
10	0	0	0	0	681	1006	3	0	0	0	
11	0	0	0	0	407	1014	3	0	0	0	
12	0	0	0	0	724	1020	3	0	0	0	
13	0	0	0	0	399	1020	3	0	0	0	
14	0	0	0	0	222	1020	3	0	0	0	
15	0	0	0	0	613	1020	3	0	0	0	
0	0	0	0	0	404	1020	3	0	0	0	
1	0	0	0	0	352	1020	3	0	0	0	
2	0	0	0	0	428	1020	3	0	0	0	
3	0	0	0	0	444	1020	3	0	0	0	
4	0	0	0	0	448	1020	3	0	0	0	
5	0	0	0	0	947	1020	3	0	0	0	
6	0	0	0	0	946	1020	3	0	0	0	
7	0	0	0	0	145	1020	3	0	0	0	
8	0	0	0	0	672	1020	3	0	0	0	
9	0	0	0	0	449	1020	3	0	0	0	
10	0	0	0	0	269	1020	3	0	0	0	
11	0	0	0	0	435	1020	3	0	0	0	
12	0	0	0	0	908	984	3	0	0	0	
13	0	0	0	0	947	881	2	0	0	0	
14	0	0	0	0	160	790	1	0	0	0	
15	0	0	0	0	441	599	1	0	0	0	
0	0	0	0	0	609	335	0	0	0	0	
1	0	0	0	0	268	175	0	0	0	0	
2	0	0	0	0	360	90	0	0	0	0	
3	0	0	0	0	525	44	0	0	0	0	
4	0	0	0	0	947	23	0	0	0	0	
5	0	0	0	0	581	13	0	0	0	0	
6	0	0	0	0	173	7	0	0	0	0	
7	0	0	0	0	709	3	0	0	0	0	
8	0	0	0	0	343	1	0	0	0	0	
9	0	0	0	0	306	0	0	0	0	0	
10	0	0	0	0	447	0	0	0	0	0	
11	0	0	0	0	947	3	0	0	0	0	
12	0	0	0	0	850	0	0	0	0	0	
13	0	0	0	0	84	0	0	0	0	0	
14	0	0	0	0	683	0	0	0	0	0	
15	0	0	0	0	412	0	0	0	0	0	
0	0	0	0	0	266	0	0	0	0	0	
1	0	0	0	0	440	0	0	0	0	0	
2	0	0	0	0	826	0	0	0	0	0	
3	0	0	0	0	947	0	0	0	0	0	
4	0	0	0	0	198	0	0	0	0	0	
5	0	0	0	0	446	0	0	0	0	0	
6	0	0	0	0	569	0	0	0	0	0	
7	0	0	0	0	252	0	0	0	0	0	
8	0	0	0	0	379	0	0	0	0	0	
9	0	0	0	0	463	0	0	0	0	0	
10	0	0	0	0	947	0	0	0	0	0	
11	0	0	0	0	947	0	0	0	0	0	
12	0	0	0	0	110	0	0	0	0	0	
13	0	0	0	0	587	0	0	0	0	0	
14	0	0	0	0	457	0	0	0	0	0	
15	0	0	0	0	246	0	0	0	0	0	
0	0	0	0	0	413	0	0	0	0	0	
1	0	0	0	0	452	0	0	0	0	0	
2	0	0	0	0	797	0	0	0	0	0	
3	0	0	0	0	947	0	0	0	0	0	
4	0	0	0	0	235	9	0	0	0	0	
5	0	0	0	0	460	7	0	0	0	0	
6	0	0	0	0	536	54	0	0	0	0	
7	0	0	0	0	248	155	0	0	0	0	
8	0	0	0	0	377	384	0	0	0	0	
9	0	0	0	0	463	536	0	0	0	0	
10	0	0	0	0	546	675	1	0	0	0	
11	0	0	0	0	947	836	2	0	0	0	
12	0	0	0	0	458	925	2	0	0	0	
13	0	0	0	0	292	972	3	0	0	0	
14	0	0	0	0	628	997	3	0	0	0	
15	0	0	0	0	269	991	3	0	0	0	
0	0	0	0	0	344	919	2	0	0	0	
1	0	0	0	0	469	897	2	0	0	0	
2	0	0	0	0	436	935	2	0	0	0	
3	0	0	0	0	947	983	3	0	0	0	
4	0	0	0	0	708	1005	3	0	0	0	
5	0	0	0	0	182	1012	3	0	0	0	
6	0	0	0	0	663	1014	3	0	0	0	
7	0	0	0	0	313	1019	3	0	0	0	
8	0	0	0	0	276	1020	3	0	0	0	
9	0	0	0	0	439	1020	3	0	0	0	
10	0	0	0	0	418	1020	3	0	0	0	
11	0	0	0	0	947	1020	3	0	0	0	
12	0	0	0	0	946	1020	3	0	0	0	
13	0	0	0	0	96	1020	3	0	0	0	
14	0	0	0	0	614	1020	3	0	0	0	
15	0	0	0	0	420	1020	3	0	0	0	
0	0	0	0	0	246	1019	3	0	0	0	
1	0	0	0	0	408	1010	3	0	0	0	
2	0	0	0	0	453	1009	3	0	0	0	
3	0	0	0	0	537	1018	3	0	0	0	
4	0	0	0	0	947	1006	3	0	0	0	
5	0	0	0	0	487	1016	3	0	0	0	
6	0	0	0	0	257	1020	3	0	0	0	
7	0	0	0	0	648	1020	3	0	0	0	
8	0	0	0	0	273	1020	3	0	0	0	
9	0	0	0	0	318	1020	3	0	0	0	
10	0	0	0	0	453	1020	3	0	0	0	
11	0	0	0	0	415	1020	3	0	0	0	
12	0	0	0	0	947	1019	3	0	0	0	
13	0	0	0	0	946	1020	3	0	0	0	
14	0	0	0	0	94	1020	3	0	0	0	
15	0	0	0	0	654	1020	3	0	0	0	
0	0	0	0	0	394	1017	3	0	0	0	
1	0	0	0	0	274	938	3	0	0	0	
2	0	0	0	0	441	989	3	0	0	0	
3	0	0	0	0	447	1009	3	0	0	0	
4	0	0	0	0	947	998	3	0	0	0	
5	0	0	0	0	947	784	1	0	0	0	
6	0	0	0	0	157	487	0	0	0	0	
7	0	0	0	0	546	251	0	0	0	0	
8	0	0	0	0	521	129	0	0	0	0	
9	0	0	0	0	230	67	0	0	0	0	
10	0	0	0	0	391	33	0	0	0	0	
11	0	0	0	0	462	17	0	0	0	0	
12	0	0	0	0	906	11	0	0	0	0	
13	0	0	0	0	947	4	0	0	0	0	
14	0	0	0	0	143	2	0	0	0	0	
15	0	0	0	0	521	0	0	0	0	0	
0	0	0	0	0	543	0	0	0	0	0	
1	0	0	0	0	241	0	0	0	0	0	
2	0	0	0	0	392	0	0	0	0	0	
3	0	0	0	0	452	0	0	0	0	0	
4	0	0	0	0	947	0	0	0	0	0	
5	0	0	0	0	930	0	0	0	0	0	
6	0	0	0	0	96	0	0	0	0	0	
7	0	0	0	0	659	0	0	0	0	0	
8	0	0	0	0	410	0	0	0	0	0	
9	0	0	0	0	258	0	0	0	0	0	
10	0	0	0	0	449	0	0	0	0	0	
11	0	0	0	0	483	0	0	0	0	0	
12	0	0	0	0	947	0	0	0	0	0	
13	0	0	0	0	638	2	0	0	0	0	
14	0	0	0	0	186	15	0	0	0	0	
15	0	0	0	0	690	43	0	0	0	0	
0	0	0	0	0	316	81	0	0	0	0	
1	0	0	0	0	307	34	0	0	0	0	
2	0	0	0	0	461	13	0	0	0	0	
3	0	0	0	0	534	5	0	0	0	0	
4	0	0	0	0	947	0	0	0	0	0	
5	0	0	0	0	481	0	0	0	0	0	
6	0	0	0	0	264	0	0	0	0	0	
7	0	0	0	0	662	0	0	0	0	0	
8	0	0	0	0	270	7	0	0	0	0	
9	0	0	0	0	319	38	0	0	0	0	
10	0	0	0	0	465	19	0	0	0	0	
11	0	0	0	0	682	24	0	0	0	0	
12	0	0	0	0	947	70	0	0	0	0	
13	0	0	0	0	274	289	0	0	0	0	
14	0	0	0	0	398	561	0	0	0	0	
15	0	0	0	0	600	781	1	0	0	0	
0	0	0	0	0	248	895	2	0	0	0	
1	0	0	0	0	367	956	3	0	0	0	
2	0	0	0	0	449	988	3	0	0	0	
3	0	0	0	0	947	1005	3	0	0	0	
4	0	0	0	0	947	1014	3	0	0	0	
5	0	0	0	0	73	1018	3	0	0	0	
6	0	0	0	0	611	1020	3	0	0	0	
7	0	0	0	0	447	1020	3	0	0	0	
8	0	0	0	0	249	1020	3	0	0	0	
9	0	0	0	0	422	1020	3	0	0	0	
10	0	0	0	0	481	1020	3	0	0	0	
11	0	0	0	0	947	1020	3	0	0	0	
12	0	0	0	0	479	1008	3	0	0	0	
13	0	0	0	0	201	971	3	0	0	0	
14	0	0	0	0	676	969	3	0	0	0	
15	0	0	0	0	299	1002	3	0	0	0	
0	0	0	0	0	319	1015	3	0	0	0	
1	0	0	0	0	471	1012	3	0	0	0	
2	0	0	0	0	819	1018	3	0	0	0	
3	0	0	0	0	947	1016	3	0	0	0	
4	0	0	0	0	146	1020	3	0	0	0	
5	0	0	0	0	526	1020	3	0	0	0	
6	0	0	0	0	537	1020	3	0	0	0	
7	0	0	0	0	259	1020	3	0	0	0	
8	0	0	0	0	423	1020	3	0	0	0	
9	0	0	0	0	465	1020	3	0	0	0	
10	0	0	0	0	947	954	3	0	0	0	
11	0	0	0	0	849	995	3	0	0	0	
12	0	0	0	0	127	1012	3	0	0	0	
13	0	0	0	0	696	1019	3	0	0	0	
14	0	0	0	0	387	973	3	0	0	0	
15	0	0	0	0	297	768	1	0	0	0	
0	0	0	0	0	468	513	0	0	0	0	
1	0	0	0	0	481	267	0	0	0	0	
2	0	0	0	0	947	136	0	0	0	0	
3	0	0	0	0	507	69	0	0	0	0	
4	0	0	0	0	258	36	0	0	0	0	
5	0	0	0	0	683	18	0	0	0	0	
6	0	0	0	0	283	9	0	0	0	0	
7	0	0	0	0	331	6	0	0	0	0	
8	0	0	0	0	465	1	0	0	0	0	
9	0	0	0	0	947	0	0	0	0	0	
10	0	0	0	0	947	0	0	0	0	0	
11	0	0	0	0	124	6	0	0	0	0	
12	0	0	0	0	626	0	0	0	0	0	
13	0	0	0	0	485	3	0	0	0	0	
14	0	0	0	0	271	7	0	0	0	0	
15	0	0	0	0	436	0	0	0	0	0	
0	0	0	0	0	757	0	0	0	0	0	
1	0	0	0	0	947	0	0	0	0	0	
2	0	0	0	0	218	7	0	0	0	0	
3	0	0	0	0	474	0	0	0	0	0	
4	0	0	0	0	563	0	0	0	0	0	
5	0	0	0	0	267	0	0	0	0	0	
6	0	0	0	0	838	0	0	0	0	0	
7	0	0	0	0	271	0	0	0	0	0	
8	0	0	0	0	349	0	0	0	0	0	
9	0	0	0	0	576	0	0	0	0	0	
10	0	0	0	0	323	0	0	0	0	0	
11	0	0	0	0	373	13	0	0	0	0	
12	0	0	0	0	454	91	0	0	0	0	
13	0	0	0	0	425	47	0	0	0	0	
14	0	0	0	0	409	36	0	0	0	0	
15	0	0	0	0	947	33	0	0	0	0	
0	0	0	0	0	947	89	0	0	0	0	
1	0	0	0	0	338	295	0	0	0	0	
2	0	0	0	0	615	556	0	0	0	0	
3	0	0	0	0	400	772	1	0	0	0	
4	0	0	0	0	269	891	2	0	0	0	
5	0	0	0	0	465	954	3	0	0	0	
6	0	0	0	0	739	988	3	0	0	0	
7	0	0	0	0	947	1005	3	0	0	0	
8	0	0	0	0	182	1014	3	0	0	0	
9	0	0	0	0	477	1018	3	0	0	0	
10	0	0	0	0	574	1020	3	0	0	0	
11	0	0	0	0	248	1020	3	0	0	0	
12	0	0	0	0	403	1020	3	0	0	0	
13	0	0	0	0	510	1018	3	0	0	0	
14	0	0	0	0	947	1020	3	0	0	0	
15	0	0	0	0	602	1020	3	0	0	0	
0	0	0	0	0	270	1020	3	0	0	0	
1	0	0	0	0	670	1019	3	0	0	0	
2	0	0	0	0	286	1011	3	0	0	0	
3	0	0	0	0	369	966	3	0	0	0	
4	0	0	0	0	467	973	3	0	0	0	
5	0	0	0	0	947	984	3	0	0	0	
6	0	0	0	0	947	1000	3	0	0	0	
7	0	0	0	0	180	1015	3	0	0	0	
8	0	0	0	0	618	1018	3	0	0	0	
9	0	0	0	0	403	1019	3	0	0	0	
10	0	0	0	0	298	1020	3	0	0	0	
11	0	0	0	0	484	1020	3	0	0	0	
12	0	0	0	0	751	1020	3	0	0	0	
13	0	0	0	0	947	1000	3	0	0	0	
14	0	0	0	0	215	994	3	0	0	0	
15	0	0	0	0	561	1011	3	0	0	0	
0	0	0	0	0	454	1019	3	0	0	0	
1	0	0	0	0	257	1020	3	0	0	0	
2	0	0	0	0	428	875	2	0	0	0	
3	0	0	0	0	569	883	2	0	0	0	
4	0	0	0	0	946	863	2	0	0	0	
5	0	0	0	0	378	688	1	0	0	0	
6	0	0	0	0	156	369	0	0	0	0	
7	0	0	0	0	132	219	0	0	0	0	
8	0	0	0	0	0	377	0	0	0	0	
9	0	0	0	0	0	693	1	0	0	0	
10	0	0	0	0	0	784	1	0	0	0	
11	0	0	0	0	0	596	1	0	0	0	
12	0	0	0	0	376	333	0	0	0	0	
13	0	0	0	0	512	171	0	0	0	0	
14	0	0	0	0	236	87	0	0	0	0	
15	0	0	0	0	420	43	0	0	0	0	
0	0	0	0	0	287	21	0	0	0	0	
1	0	0	0	0	364	12	0	0	0	0	
2	0	0	0	0	500	4	0	0	0	0	
3	0	0	0	0	645	3	0	0	0	0	
4	0	0	0	0	946	0	0	0	0	0	
5	0	0	0	0	947	0	0	0	0	0	
6	0	0	0	0	946	47	0	0	0	0	
7	0	0	0	0	947	93	0	0	0	0	
8	0	0	0	0	535	87	0	0	0	0	
9	0	0	0	0	414	37	0	0	0	0	
10	0	0	0	0	583	47	0	0	0	0	
11	0	0	0	0	524	21	0	0	0	0	
12	0	0	0	0	947	10	0	0	0	0	
13	0	0	0	0	947	2	0	0	0	0	
14	0	0	0	0	406	0	0	0	0	0	
15	0	0	0	0	597	0	0	0	0	0	
0	0	0	0	0	366	0	0	0	0	0	
1	0	0	0	0	367	0	0	0	0	0	
2	0	0	0	0	487	0	0	0	0	0	
3	0	0	0	0	431	5	0	0	0	0	
4	0	0	0	0	947	0	0	0	0	0	
5	0	0	0	0	947	0	0	0	0	0	
6	0	0	0	0	261	104	0	0	0	0	
7	0	0	0	0	603	299	0	0	0	0	
8	0	0	0	0	351	453	0	0	0	0	
9	0	0	0	0	326	463	0	0	0	0	
10	0	0	0	0	465	436	0	0	0	0	
11	0	0	0	0	444	509	0	0	0	0	
12	0	0	0	0	947	687	1	0	0	0	
13	0	0	0	0	750	844	2	0	0	0	
14	0	0	0	0	261	929	2	0	0	0	
15	0	0	0	0	611	974	3	0	0	0	
0	0	0	0	0	358	996	3	0	0	0	
1	0	0	0	0	342	1009	3	0	0	0	
2	0	0	0	0	458	1016	3	0	0	0	
3	0	0	0	0	450	1019	3	0	0	0	
4	0	0	0	0	947	1020	3	0	0	0	
5	0	0	0	0	566	1020	3	0	0	0	
6	0	0	0	0	273	1020	3	0	0	0	
7	0	0	0	0	611	1020	3	0	0	0	
8	0	0	0	0	326	1020	3	0	0	0	
9	0	0	0	0	336	1020	3	0	0	0	
10	0	0	0	0	454	1020	3	0	0	0	
11	0	0	0	0	477	1020	3	0	0	0	
12	0	0	0	0	947	1020	3	0	0	0	
13	0	0	0	0	462	1020	3	0	0	0	
14	0	0	0	0	281	1020	3	0	0	0	
15	0	0	0	0	627	1020	3	0	0	0	
0	0	0	0	0	324	1020	3	0	0	0	
1	0	0	0	0	340	1010	3	0	0	0	
2	0	0	0	0	457	1016	3	0	0	0	
3	0	0	0	0	682	1020	3	0	0	0	
4	0	0	0	0	947	1011	3	0	0	0	
5	0	0	0	0	247	1018	3	0	0	0	
6	0	0	0	0	445	1000	3	0	0	0	
7	0	0	0	0	574	1008	3	0	0	0	
8	0	0	0	0	287	1009	3	0	0	0	
9	0	0	0	0	393	988	3	0	0	0	
10	0	0	0	0	482	953	3	0	0	0	
11	0	0	0	0	947	936	2	0	0	0	
12	0	0	0	0	633	935	2	0	0	0	
13	0	0	0	0	198	944	3	0	0	0	
14	0	0	0	0	639	924	2	0	0	0	
15	0	0	0	0	369	920	2	0	0	0	
0	0	0	0	0	324	914	2	0	0	0	
1	0	0	0	0	447	892	2	0	0	0	
2	0	0	0	0	947	910	2	0	0	0	
3	0	0	0	0	871	939	3	0	0	0	
4	0	0	0	0	148	954	3	0	0	0	
5	0	0	0	0	588	907	2	0	0	0	
6	0	0	0	0	445	903	2	0	0	0	
7	0	0	0	0	359	930	2	0	0	0	
8	0	0	0	0	798	974	3	0	0	0	
9	0	0	0	0	207	999	3	0	0	0	
10	0	0	0	0	464	1003	3	0	0	0	
11	0	0	0	0	509	1000	3	0	0	0	
12	0	0	0	0	334	938	3	0	0	0	
13	0	0	0	0	403	652	1	0	0	0	
14	0	0	0	0	457	376	0	0	0	0	
15	0	0	0	0	423	248	0	0	0	0	
0	0	0	0	0	419	233	0	0	0	0	
1	0	0	0	0	947	278	0	0	0	0	
2	0	0	0	0	947	334	0	0	0	0	
3	0	0	0	0	194	412	0	0	0	0	
4	0	0	0	0	679	471	0	0	0	0	
5	0	0	0	0	384	521	0	0	0	0	
6	0	0	0	0	299	560	0	0	0	0	
7	0	0	0	0	468	596	1	0	0	0	
8	0	0	0	0	662	632	1	0	0	0	
9	0	0	0	0	947	691	1	0	0	0	
10	0	0	0	0	216	758	1	0	0	0	
11	0	0	0	0	470	795	1	0	0	0	
12	0	0	0	0	575	819	1	0	0	0	
13	0	0	0	0	282	906	2	0	0	0	
14	0	0	0	0	413	963	3	0	0	0	
15	0	0	0	0	733	686	1	0	0	0	
0	0	0	0	0	947	351	0	0	0	0	
1	0	0	0	0	230	181	0	0	0	0	
2	0	0	0	0	502	92	0	0	0	0	
3	0	0	0	0	556	45	0	0	0	0	
4	0	0	0	0	297	69	0	0	0	0	
5	0	0	0	0	428	310	0	0	0	0	
6	0	0	0	0	947	292	0	0	0	0	
7	0	0	0	0	730	132	0	0	0	0	
8	0	0	0	0	230	63	0	0	0	0	
9	0	0	0	0	665	30	0	0	0	0	
10	0	0	0	0	382	20	0	0	0	0	
11	0	0	0	0	350	9	0	0	0	0	
12	0	0	0	0	945	5	0	0	0	0	
13	0	0	0	0	914	0	0	0	0	0	
14	0	0	0	0	175	0	0	0	0	0	
15	0	0	0	0	598	0	0	0	0	0	
0	0	0	0	0	419	0	0	0	0	0	
1	0	0	0	0	332	0	0	0	0	0	
2	0	0	0	0	519	0	0	0	0	0	
3	0	0	0	0	947	0	0	0	0	0	
4	0	0	0	0	404	3	0	0	0	0	
5	0	0	0	0	387	105	0	0	0	0	
6	0	0	0	0	557	44	0	0	0	0	
7	0	0	0	0	295	23	0	0	0	0	
8	0	0	0	0	433	183	0	0	0	0	
9	0	0	0	0	500	355	0	0	0	0	
10	0	0	0	0	947	593	0	0	0	0	
11	0	0	0	0	547	792	1	0	0	0	
12	0	0	0	0	328	901	2	0	0	0	
13	0	0	0	0	560	955	3	0	0	0	
14	0	0	0	0	292	986	3	0	0	0	
15	0	0	0	0	396	1004	3	0	0	0	
0	0	0	0	0	430	1014	3	0	0	0	
1	0	0	0	0	947	1017	3	0	0	0	
2	0	0	0	0	668	1011	3	0	0	0	
3	0	0	0	0	255	989	3	0	0	0	
4	0	0	0	0	591	984	3	0	0	0	
5	0	0	0	0	313	1009	3	0	0	0	
6	0	0	0	0	332	1016	3	0	0	0	
7	0	0	0	0	453	1001	3	0	0	0	
8	0	0	0	0	381	1011	3	0	0	0	
9	0	0	0	0	947	1018	3	0	0	0	
10	0	0	0	0	599	1020	3	0	0	0	
11	0	0	0	0	280	1020	3	0	0	0	
12	0	0	0	0	536	1020	3	0	0	0	
13	0	0	0	0	296	1020	3	0	0	0	
14	0	0	0	0	343	1020	3	0	0	0	
15	0	0	0	0	444	1020	3	0	0	0	
0	0	0	0	0	403	1020	3	0	0	0	
1	0	0	0	0	815	936	3	0	0	0	
2	0	0	0	0	947	591	0	0	0	0	
3	0	0	0	0	243	306	0	0	0	0	
4	0	0	0	0	490	158	0	0	0	0	
5	0	0	0	0	451	81	0	0	0	0	
6	0	0	0	0	316	40	0	0	0	0	
7	0	0	0	0	457	19	0	0	0	0	
8	0	0	0	0	446	12	0	0	0	0	
9	0	0	0	0	465	11	0	0	0	0	
10	0	0	0	0	947	16	0	0	0	0	
11	0	0	0	0	490	7	0	0	0	0	
12	0	0	0	0	342	3	0	0	0	0	
13	0	0	0	0	562	0	0	0	0	0	
14	0	0	0	0	309	0	0	0	0	0	
15	0	0	0	0	399	0	0	0	0	0	
0	0	0	0	0	473	0	0	0	0	0	
1	0	0	0	0	386	6	0	0	0	0	
2	0	0	0	0	939	115	0	0	0	0	
3	0	0	0	0	947	235	0	0	0	0	
4	0	0	0	0	251	569	0	0	0	0	
5	0	0	0	0	585	785	1	0	0	0	
6	0	0	0	0	431	898	2	0	0	0	
7	0	0	0	0	300	958	3	0	0	0	
8	0	0	0	0	447	990	3	0	0	0	
9	0	0	0	0	447	945	3	0	0	0	
10	0	0	0	0	391	930	2	0	0	0	
11	0	0	0	0	947	952	3	0	0	0	
12	0	0	0	0	646	961	3	0	0	0	
13	0	0	0	0	252	990	3	0	0	0	
14	0	0	0	0	635	1007	3	0	0	0	
15	0	0	0	0	337	1016	3	0	0	0	
0	0	0	0	0	367	1019	3	0	0	0	
1	0	0	0	0	490	1020	3	0	0	0	
2	0	0	0	0	427	1020	3	0	0	0	
3	0	0	0	0	620	1020	3	0	0	0	
4	0	0	0	0	947	1020	3	0	0	0	
5	0	0	0	0	297	796	1	0	0	0	
6	0	0	0	0	447	414	0	0	0	0	
7	0	0	0	0	573	215	0	0	0	0	
8	0	0	0	0	229	111	0	0	0	0	
9	0	0	0	0	500	56	0	0	0	0	
10	0	0	0	0	390	62	0	0	0	0	
11	0	0	0	0	279	273	0	0	0	0	
12	0	0	0	0	0	458	0	0	0	0	
13	0	0	0	0	192	374	0	0	0	0	
14	0	0	0	0	0	199	0	0	0	0	
15	0	0	0	0	0	97	0	0	0	0	
0	0	0	0	0	0	47	0	0	0	0	
1	0	0	0	0	0	23	0	0	0	0	
2	0	0	0	0	159	11	0	0	0	0	
3	0	0	0	0	335	5	0	0	0	0	
4	0	0	0	0	560	0	0	0	0	0	
5	0	0	0	0	946	0	0	0	0	0	
6	0	0	0	0	335	0	0	0	0	0	
7	0	0	0	0	345	0	0	0	0	0	
8	0	0	0	0	462	0	0	0	0	0	
9	0	0	0	0	215	0	0	0	0	0	
10	0	0	0	0	289	0	0	0	0	0	
11	0	0	0	0	406	0	0	0	0	0	
12	0	0	0	0	946	28	0	0	0	0	
13	0	0	0	0	946	16	0	0	0	0	
14	0	0	0	0	217	57	0	0	0	0	
15	0	0	0	0	647	29	0	0	0	0	
0	0	0	0	0	395	109	0	0	0	0	
1	0	0	0	0	256	212	0	0	0	0	
2	0	0	0	0	407	287	0	0	0	0	
3	0	0	0	0	946	446	0	0	0	0	
4	0	0	0	0	946	599	1	0	0	0	
5	0	0	0	0	228	461	0	0	0	0	
6	0	0	0	0	582	227	0	0	0	0	
7	0	0	0	0	412	124	0	0	0	0	
8	0	0	0	0	260	113	0	0	0	0	
9	0	0	0	0	420	54	0	0	0	0	
10	0	0	0	0	946	26	0	0	0	0	
11	0	0	0	0	946	71	0	0	0	0	
12	0	0	0	0	287	508	0	0	0	0	
13	0	0	0	0	594	756	1	0	0	0	
14	0	0	0	0	361	882	2	0	0	0	
15	0	0	0	0	270	949	3	0	0	0	
0	0	0	0	0	447	985	3	0	0	0	
1	0	0	0	0	946	1004	3	0	0	0	
2	0	0	0	0	946	1013	3	0	0	0	
3	0	0	0	0	332	1018	3	0	0	0	
4	0	0	0	0	557	1020	3	0	0	0	
5	0	0	0	0	344	1020	3	0	0	0	
6	0	0	0	0	269	1020	3	0	0	0	
7	0	0	0	0	483	1020	3	0	0	0	
8	0	0	0	0	947	1020	3	0	0	0	
9	0	0	0	0	946	1020	3	0	0	0	
10	0	0	0	0	248	1020	3	0	0	0	
11	0	0	0	0	527	1004	3	0	0	0	
12	0	0	0	0	291	962	3	0	0	0	
13	0	0	0	0	263	957	3	0	0	0	
14	0	0	0	0	388	989	3	0	0	0	
15	0	0	0	0	947	1010	3	0	0	0	
0	0	0	0	0	947	1018	3	0	0	0	
1	0	0	0	0	712	1001	3	0	0	0	
2	0	0	0	0	368	1005	3	0	0	0	
3	0	0	0	0	361	1017	3	0	0	0	
4	0	0	0	0	222	1020	3	0	0	0	
5	0	0	0	0	352	1020	3	0	0	0	
6	0	0	0	0	372	924	2	0	0	0	
7	0	0	0	0	843	716	1	0	0	0	
8	0	0	0	0	947	530	0	0	0	0	
9	0	0	0	0	946	308	0	0	0	0	
10	0	0	0	0	303	160	0	0	0	0	
11	0	0	0	0	391	82	0	0	0	0	
12	0	0	0	0	229	41	0	0	0	0	
13	0	0	0	0	304	20	0	0	0	0	
14	0	0	0	0	362	11	0	0	0	0	
15	0	0	0	0	312	4	0	0	0	0	
0	0	0	0	0	946	0	0	0	0	0	
1	0	0	0	0	947	0	0	0	0	0	
2	0	0	0	0	694	0	0	0	0	0	
3	0	0	0	0	334	0	0	0	0	0	
4	0	0	0	0	371	0	0	0	0	0	
5	0	0	0	0	213	0	0	0	0	0	
6	0	0	0	0	315	0	0	0	0	0	
7	0	0	0	0	374	0	0	0	0	0	
8	0	0	0	0	308	0	0	0	0	0	
9	0	0	0	0	947	0	0	0	0	0	
10	0	0	0	0	947	202	0	0	0	0	
11	0	0	0	0	671	403	0	0	0	0	
12	0	0	0	0	384	677	1	0	0	0	
13	0	0	0	0	396	840	2	0	0	0	
14	0	0	0	0	224	927	2	0	0	0	
15	0	0	0	0	335	973	3	0	0	0	
